Frequency,Impedance,Phase,Real,Imaginary,Magnitude,
 1000 , 3542.60480517475 , 16.7103434203239 ,-18402 ,-21752 , 28491.807734856 
 1190 , 3283.46719113988 , 9.11987454305498 ,-9945 ,-27590 , 29327.6512015538 
 1380 , 3050.38929756095 , 2.27964267374358 ,-3265 ,-27184 , 27379.3732762458 
 1570 , 2774.69114223978 ,-1.98681088470238 , 354 ,-24152 , 24154.5941799899 
 1760 , 2483.92702066028 ,-2.1474768226052 , 595 ,-21306 , 21314.3064864893 
 1950 , 2381.5020219069 , 1.33686236224077 ,-555 ,-20493 , 20500.5139935564 
 2140 , 2443.16987444019 , 3.11178143167683 ,-848 ,-20933 , 20950.1692833256 
 2330 , 2489.32191418098 , 2.34778304749068 ,-394 ,-21329 , 21332.6387725476 
 2520 , 2470.25256193295 , 1.13048299142048 , 283 ,-21215 , 21216.8874720115 
 2710 , 2414.84890464447 , 0.938031130806394 , 584 ,-20744 , 20752.2189656914 
 2900 , 2386.18326244084 , 1.79159177713376 , 463 ,-20499 , 20504.228100565 
 3090 , 2397.83952372944 , 2.48509753550036 , 428 ,-20586 , 20590.4487566444 
 3280 , 2415.76591940923 , 2.47850735823243 , 590 ,-20714 , 20722.4008261591 
 3470 , 2415.81140656562 , 2.12326377335069 , 851 ,-20719 , 20736.4693716168 
 3660 , 2399.23834073209 , 2.07148950625293 , 1051 ,-20582 , 20608.8166812168 
 3850 , 2387.49492863968 , 2.32297344513904 , 1053 ,-20481 , 20508.051345752 
 4040 , 2391.44935724575 , 2.72004640923302 , 1108 ,-20502 , 20531.9182737512 
 4230 , 2400.10731681715 , 2.80219375729854 , 1217 ,-20560 , 20595.9872062497 
 4420 , 2402.59502858772 , 2.61604237739675 , 1369 ,-20570 , 20615.5053539805 
 4610 , 2394.29225510685 , 2.63684509880579 , 1538 ,-20504 , 20561.6015913158 
 4800 , 2388.57108790581 , 2.79365793619587 , 1576 ,-20443 , 20503.6588198302 
 4990 , 2390.17087780647 , 3.01732469298082 , 1625 ,-20456 , 20520.4425147218 
 5180 , 2394.80190362842 , 3.07937016497664 , 1719 ,-20488 , 20559.9879620587 
 5370 , 2399.61264962837 , 2.9887044828709 , 1848 ,-20489 , 20572.1711299513 
 5560 , 2394.50984530308 , 3.00882480110494 , 1970 ,-20453 , 20547.6545863512 
 5750 , 2389.10495415228 , 3.17947914850413 , 2060 ,-20406 , 20509.7156489309 
 5940 , 2389.34074278788 , 3.29016317723682 , 2097 ,-20398 , 20505.5068944906 
 6130 , 2393.19590188517 , 3.40900137382084 , 2177 ,-20419 , 20534.7240059369 
 6320 , 2395.00619311044 , 3.39942137925107 , 2278 ,-20429 , 20555.6154128258 
 6510 , 2393.55697113314 , 3.39014060695797 , 2397 ,-20399 , 20539.3478474853 
 6700 , 2390.29326302603 , 3.43274909775278 , 2487 ,-20360 , 20511.3326968288 
 6890 , 2388.72534751157 , 3.5723270762665 , 2541 ,-20344 , 20502.0734805044 
 7080 , 2390.11266263092 , 3.66057340385913 , 2601 ,-20341 , 20506.6204431642 
 7270 , 2391.05226501435 , 3.73491854036001 , 2692 ,-20340 , 20517.3698119423 
 7460 , 2391.3930704197 , 3.74943487951418 , 2778 ,-20329 , 20517.9317914842 
 7650 , 2389.67602427427 , 3.82561353218432 , 2857 ,-20303 , 20503.0304589346 
 7840 , 2388.80982278165 , 3.90783637629619 , 2926 ,-20291 , 20500.8818590811 
 8030 , 2390.38407252476 , 4.01860274484017 , 3002 ,-20286 , 20506.9207829942 
 8220 , 2391.34585896819 , 4.02169622970206 , 3078 ,-20287 , 20519.1728147116 
 8410 , 2390.85084871568 , 4.07062926263166 , 3166 ,-20271 , 20516.7491820707 
 8600 , 2389.4380229441 , 4.10441074004871 , 3232 ,-20248 , 20504.3246170168 
 8790 , 2387.31948707001 , 4.18977965200213 , 3305 ,-20233 , 20501.153967521 
 8980 , 2390.17420300832 , 4.28249087224441 , 3369 ,-20226 , 20504.6637865633 
 9170 , 2391.16629889281 , 4.28833095758984 , 3433 ,-20223 , 20512.318689022 
 9360 , 2389.58797735705 , 4.31889296474753 , 3522 ,-20212 , 20516.5647221946 
 9550 , 2389.97262908681 , 4.38493660868949 , 3598 ,-20188 , 20506.1197694737 
 9740 , 2390.05700301068 , 4.4461268441994 , 3656 ,-20168 , 20496.6963191632 
 9930 , 2389.85873501856 , 4.54651172880233 , 3721 ,-20163 , 20503.4731204252 
 10120 , 2391.12448404461 , 4.59608639367622 , 3796 ,-20159 , 20513.2858655068 
 10310 , 2391.8383907932 , 4.63743117762516 , 3874 ,-20145 , 20514.1146774605 
 10500 , 2390.49433470569 , 4.63328903892881 , 3954 ,-20125 , 20509.7474630967 
 10690 , 2389.56615088796 , 4.69390528611706 , 4021 ,-20104 , 20502.1768844189 
 10880 , 2389.16842039236 , 4.82296464762123 , 4097 ,-20081 , 20494.6815052101 
 11070 , 2390.9072455997 , 4.81367301690841 , 4146 ,-20075 , 20498.657053573 
 11260 , 2390.30132760014 , 4.9469212293954 , 4226 ,-20055 , 20495.4165851783 
 11450 , 2389.47031187868 , 4.96324165149611 , 4295 ,-20047 , 20501.9324455038 
 11640 , 2389.36710656754 , 5.00290790773312 , 4358 ,-20028 , 20496.6569957152 
 11830 , 2389.62432754061 , 5.0798453157704 , 4428 ,-20014 , 20497.9847789972 
 12020 , 2390.3134411882 , 5.13510716834139 , 4500 ,-19997 , 20497.0731813105 
 12210 , 2389.78285168686 , 5.14617649156156 , 4560 ,-19983 , 20496.6799506652 
 12400 , 2389.86404510288 , 5.19381124059316 , 4624 ,-19970 , 20498.3481285688 
 12590 , 2389.92922989238 , 5.25814238105784 , 4687 ,-19950 , 20493.1810366278 
 12780 , 2389.29453718738 , 5.31779571231976 , 4752 ,-19938 , 20496.4715987899 
 12970 , 2391.08641532394 , 5.40283454835537 , 4835 ,-19919 , 20497.4092509273 
 13160 , 2390.91936413628 , 5.37120412989577 , 4876 ,-19914 , 20502.2626068442 
 13350 , 2389.93892522971 , 5.41119258060223 , 4942 ,-19893 , 20497.6782343757 
 13540 , 2389.61801758268 , 5.49631379784978 , 5021 ,-19871 , 20495.5380997914 
 13730 , 2389.75758312332 , 5.54582404195401 , 5081 ,-19855 , 20494.8185159079 
 13920 , 2390.82839271814 , 5.62400187588651 , 5142 ,-19844 , 20499.3780393455 
 14110 , 2389.8506716302 , 5.63300126524189 , 5212 ,-19826 , 20499.6395090255 
 14300 , 2390.43240403028 , 5.6837858102698 , 5282 ,-19807 , 20499.1895693464 
 14490 , 2390.42592708393 , 5.50767635280266 , 5278 ,-19803 , 20494.2941571551 
 14680 , 2390.15831898528 , 5.77688777112849 , 5408 ,-19766 , 20492.4673965826 
 14870 , 2390.23923017951 , 5.83018046384228 , 5473 ,-19745 , 20489.4791051408 
 15060 , 2389.29434762096 , 5.88885481591791 , 5532 ,-19735 , 20495.6885466188 
 15250 , 2390.26427260906 , 5.95870207282263 , 5601 ,-19709 , 20489.4090202719 
 15440 , 2389.46136793867 , 5.99538334885625 , 5666 ,-19692 , 20490.9350689518 
 15630 , 2390.20152764661 , 6.10885908686384 , 5755 ,-19667 , 20491.7279408058 
 15820 , 2389.47462564955 , 6.07963279807632 , 5787 ,-19659 , 20493.0634605956 
 16010 , 2389.88322351758 , 6.12620493759113 , 5845 ,-19640 , 20491.3060833125 
 16200 , 2390.05814128351 , 6.16350694834347 , 5917 ,-19622 , 20494.7254921846 
 16390 , 2390.10850639436 , 5.94210524824388 , 5888 ,-19631 , 20494.9921932164 
 16580 , 2390.03857372432 , 6.26899051200053 , 6044 ,-19576 , 20487.794219974 
 16770 , 2390.33930734861 , 6.33011675254585 , 6099 ,-19559 , 20487.8569401487 
 16960 , 2389.75365178911 , 6.60324025425075 , 6247 ,-19522 , 20497.1581688779 
 17150 , 2390.38993323396 , 6.39428448570533 , 6227 ,-19523 , 20492.0242533528 
 17340 , 2390.22284552523 , 6.45099903847739 , 6295 ,-19498 , 20488.9977548927 
 17530 , 2389.86868077701 , 6.36612466770669 , 6307 ,-19491 , 20486.0276774196 
 17720 , 2390.01982509123 , 6.53444224658426 , 6407 ,-19462 , 20489.4873776774 
 17910 , 2390.57135547699 , 6.57840821291046 , 6468 ,-19445 , 20492.5120226877 
 18100 , 2389.12507071635 , 6.5438150512519 , 6510 ,-19436 , 20497.2728917776 
 18290 , 2390.52288319617 , 6.61047376102528 , 6586 ,-19402 , 20489.338691134 
 18480 , 2390.30665436292 , 6.69660750482507 , 6660 ,-19376 , 20488.6548118709 
 18670 , 2389.75056013568 , 6.74945981548166 , 6725 ,-19350 , 20485.3148621153 
 18860 , 2390.26601160733 , 6.50542774831774 , 6681 ,-19355 , 20475.6388422926 
 19050 , 2391.06455158543 , 6.94414951741737 , 6869 ,-19298 , 20484.0417154428 
 19240 , 2390.45079692559 , 6.89753856676754 , 6892 ,-19283 , 20477.6403181617 
 19430 , 2389.40498039231 , 6.92245559784641 , 6952 ,-19272 , 20487.5642280872 
 19620 , 2389.34719827879 , 7.25024291623475 , 7109 ,-19218 , 20490.715092451 
 19810 , 2390.05733940791 , 6.97024773823171 , 7055 ,-19229 , 20482.3696383011 
 20000 , 2389.14635521551 , 7.09048324582801 , 7144 ,-19201 , 20486.9504075155 
 20190 , 2389.69619072091 , 7.10994635569756 , 7193 ,-19176 , 20480.6793100229 
 20380 , 2389.84825912916 , 7.21354163529281 , 7270 ,-19150 , 20483.5397331614 
 20570 , 2389.90325812992 , 7.20101946598959 , 7310 ,-19135 , 20483.7575898564 
 20760 , 2390.48094625388 , 7.21859080987201 , 7367 ,-19113 , 20483.6387880669 
 20950 , 2389.99591279469 , 7.29126349774583 , 7436 ,-19083 , 20480.6002109313 
 21140 , 2391.15214203502 , 7.31878147467393 , 7489 ,-19062 , 20480.3555877333 
 21330 , 2389.69907162803 , 7.33878053976065 , 7545 ,-19042 , 20482.3042893128 
 21520 , 2389.97876814063 , 7.39458697415563 , 7601 ,-19019 , 20481.6396316311 
 21710 , 2390.55557870896 , 7.45333113910465 , 7665 ,-18990 , 20478.5821042376 
 21900 , 2389.50537215549 , 7.52047315639447 , 7732 ,-18967 , 20482.4537836657 
 22090 , 2390.815666487 , 7.52554608506762 , 7781 ,-18947 , 20482.4991150982 
 22280 , 2389.95659940227 , 7.55457580215898 , 7836 ,-18921 , 20479.4320477888 
 22470 , 2390.32468934792 , 7.56416727726219 , 7884 ,-18898 , 20476.6173964354 
 22660 , 2390.21374780682 , 7.65078533653036 , 7953 ,-18871 , 20478.3995956715 
 22850 , 2389.89434346326 , 7.71065858760215 , 8013 ,-18843 , 20476.0059093564 
 23040 , 2389.76455932518 , 7.71363328796338 , 8064 ,-18820 , 20474.8747493117 
 23230 , 2390.87745708528 , 7.89466980650201 , 8167 ,-18777 , 20476.2207938867 
 23420 , 2389.76987256323 , 7.82639460387492 , 8187 ,-18769 , 20476.8730522998 
 23610 , 2389.40801187102 , 7.84125056625078 , 8237 ,-18751 , 20480.4338332956 
 23800 , 2388.5619490951 , 8.01551140300637 , 8339 ,-18716 , 20489.6944096294 
 23990 , 2390.25405370602 , 7.90563596199354 , 8347 ,-18697 , 20475.6005528531 
 24180 , 2390.58934989272 , 8.00587413775855 , 8417 ,-18668 , 20477.7956089028 
 24370 , 2390.90673236089 , 7.88156497776498 , 8416 ,-18657 , 20467.357059474 
 24560 , 2390.82060410637 , 8.09267532416141 , 8527 ,-18610 , 20470.5112051458 
 24750 , 2390.79375612254 , 8.09308020927097 , 8579 ,-18588 , 20472.2491436579 
 24940 , 2391.0869017552 , 8.1646475927206 , 8639 ,-18559 , 20471.1700202993 
 25130 , 2390.08571351684 , 8.20376084172705 , 8702 ,-18533 , 20474.2983518361 
 25320 , 2390.20846122534 , 8.35928204179038 , 8792 ,-18494 , 20477.4827554561 
 25510 , 2390.6206943868 , 8.27397482257516 , 8804 ,-18481 , 20470.9007373882 
 25700 , 2389.75105811601 , 8.31130027770911 , 8860 ,-18457 , 20473.4083386231 
 25890 , 2390.3283037153 , 8.36666992328884 , 8920 ,-18429 , 20474.2384717967 
 26080 , 2390.36629631482 , 8.41772202180891 , 8990 ,-18398 , 20476.9749719044 
 26270 , 2389.62787309193 , 8.42864015440108 , 9034 ,-18371 , 20472.0980116841 
 26460 , 2390.15161819195 , 8.46725438606552 , 9086 ,-18342 , 20469.1074548941 
 26650 , 2389.53556255122 , 8.55852808564487 , 9152 ,-18308 , 20468.0719170126 
 26840 , 2390.63496309653 , 8.53796653348809 , 9189 ,-18283 , 20462.3021676448 
 27030 , 2388.8565060232 , 8.593559500195 , 9259 ,-18266 , 20478.6678521822 
 27220 , 2390.47047136791 , 8.6714684807892 , 9307 ,-18226 , 20464.7825544275 
 27410 , 2390.04233967177 , 8.62672687009336 , 9343 ,-18208 , 20465.1634002761 
 27600 , 2390.40282841485 , 8.71863700348058 , 9415 ,-18175 , 20468.8262975677 
 27790 , 2392.52604177375 , 8.71829704976949 , 9445 ,-18134 , 20446.2705890341 
 27980 , 2390.51912404427 , 8.80090519804565 , 9522 ,-18112 , 20462.478540001 
 28170 , 2392.17391451546 , 9.03921018363548 , 9647 ,-18055 , 20470.6529939814 
 28360 , 2390.73913862676 , 8.88809923059904 , 9633 ,-18053 , 20462.2945438678 
 28550 , 2390.8736615533 , 8.64525806918704 , 9592 ,-18066 , 20454.5061050127 
 28740 , 2390.23647222219 , 8.96556989900711 , 9741 ,-17997 , 20464.0926991646 
 28930 , 2390.9760161788 , 9.00425284178868 , 9796 ,-17967 , 20463.9855600027 
 29120 , 2389.61405254923 , 9.09819652738327 , 9866 ,-17928 , 20463.4097842955 
 29310 , 2390.6359335392 , 9.09512762745544 , 9907 ,-17905 , 20463.0807553506 
 29500 , 2389.80142944488 , 9.15599594736136 , 9963 ,-17872 , 20461.4210894552 
 29690 , 2391.00022988413 , 9.18952972199702 , 10017 ,-17843 , 20462.4763408538 
 29880 , 2391.1787901106 , 9.19149567356641 , 10061 ,-17813 , 20457.9248703284 
 30070 , 2390.60679806099 , 9.24059120995031 , 10119 ,-17783 , 20460.4313248768 
 30260 , 2391.60573565912 , 9.42270181230322 , 10186 ,-17743 , 20458.9502418868 
 30450 , 2389.88504243741 , 9.32676333639324 , 10227 ,-17720 , 20459.4703988153 
 30640 , 2389.48260564015 , 9.40612517847603 , 10287 ,-17682 , 20456.6735565683 
 30830 , 2390.46834864973 , 9.44058330773311 , 10335 ,-17651 , 20454.0955801033 
 31020 , 2390.27206745563 , 9.4686243349077 , 10383 ,-17624 , 20455.1231968913 
 31210 , 2391.35199685101 , 9.35084707277036 , 10393 ,-17612 , 20449.86535408 
 31400 , 2391.43308846777 , 9.52964028775591 , 10485 ,-17562 , 20453.8277346809 
 31590 , 2390.90630045227 , 9.5237198776158 , 10525 ,-17537 , 20452.9214050218 
 31780 , 2390.30470728026 , 9.6204503853416 , 10595 ,-17496 , 20453.9492763623 
 31970 , 2390.24953087132 , 9.67159624855628 , 10651 ,-17461 , 20453.1249935065 
 32160 , 2391.2580639037 , 9.7142023487188 , 10701 ,-17428 , 20451.077844456 
 32350 , 2390.13526870218 , 9.73036186894529 , 10750 ,-17401 , 20453.7845153409 
 32540 , 2390.59191256984 , 9.7790451145957 , 10808 ,-17368 , 20456.3019140802 
 32730 , 2391.25861737183 , 9.81870492532454 , 10855 ,-17330 , 20448.9590199599 
 32920 , 2390.6431235114 , 9.87471633634556 , 10912 ,-17294 , 20448.8185477792 
 33110 , 2390.9020996067 , 9.88608510640097 , 10955 ,-17268 , 20449.8373832165 
 33300 , 2390.72604527065 , 9.66719529114897 , 10923 ,-17282 , 20444.5458007753 
 33490 , 2390.91252556459 , 9.97956667672048 , 11058 ,-17205 , 20452.1732097105 
 33680 , 2391.12323656317 , 10.0329108479101 , 11113 ,-17167 , 20450.0527627681 
 33870 , 2390.53678949661 , 10.0562154532489 , 11164 ,-17136 , 20451.8310182732 
 34060 , 2390.97901442163 , 10.0615925823856 , 11211 ,-17100 , 20447.4086622242 
 34250 , 2390.55639566708 , 10.1483851597829 , 11276 ,-17056 , 20446.4009546913 
 34440 , 2391.20617015849 , 10.2352033042222 , 11339 ,-17010 , 20442.9210486173 
 34630 , 2391.13313062628 , 10.2036527869346 , 11362 ,-16994 , 20442.3844010428 
 34820 , 2390.60435320172 , 10.2514054346707 , 11412 ,-16961 , 20442.82918287 
 35010 , 2391.58232464268 , 10.2793771512851 , 11459 ,-16930 , 20443.4239059899 
 35200 , 2391.1018261046 , 10.3335247683258 , 11516 ,-16890 , 20442.3666927291 
 35390 , 2390.69234102908 , 10.3509185216504 , 11556 ,-16860 , 20440.1745589415 
 35580 , 2391.38598955442 , 10.3891927012531 , 11611 ,-16826 , 20443.3264661111 
 35770 , 2389.81038326327 , 10.558457505971 , 11700 ,-16767 , 20445.5933883074 
 35960 , 2390.84719104272 , 10.4841625653867 , 11715 ,-16748 , 20438.6087833786 
 36150 , 2391.08389741222 , 10.5059195859307 , 11762 ,-16715 , 20438.5877447538 
 36340 , 2390.4680714092 , 10.5424619551184 , 11804 ,-16681 , 20435.0232933559 
 36530 , 2390.553490592 , 10.6215236448368 , 11865 ,-16642 , 20438.5515386976 
 36720 , 2390.89401720778 , 10.6698044493623 , 11917 ,-16603 , 20437.0863383213 
 36910 , 2390.93096568122 , 10.6788688058108 , 11955 ,-16575 , 20436.5518128671 
 37100 , 2391.71187817726 , 10.6670286483265 , 11989 ,-16543 , 20430.5401299134 
 37290 , 2391.32544071304 , 10.7497606578669 , 12052 ,-16500 , 20432.8339688845 
 37480 , 2391.05741755771 , 10.792923831505 , 12105 ,-16464 , 20435.1246876548 
 37670 , 2391.2626497374 , 10.8225031939253 , 12150 ,-16430 , 20434.4659827459 
 37860 , 2390.95823539414 , 10.8416364908897 , 12202 ,-16396 , 20438.141304923 
 38050 , 2391.71418672845 , 10.8953325730404 , 12251 ,-16353 , 20433.0029608964 
 38240 , 2390.64847834865 , 10.9522548604725 , 12300 ,-16313 , 20430.4666858102 
 38430 , 2389.09074998288 , 10.7761675033651 , 12295 ,-16333 , 20443.4320504166 
 38620 , 2390.53200579525 , 11.0157497878084 , 12392 ,-16239 , 20427.109071036 
 38810 , 2391.65619702171 , 11.0584445198047 , 12441 ,-16201 , 20426.7198051963 
 39000 , 2391.06128061688 , 11.0916612967347 , 12486 ,-16168 , 20428.0302525721 
 39190 , 2390.82457119734 , 11.0983963850011 , 12527 ,-16133 , 20425.4600437787 
 39380 , 2390.87626366511 , 11.2041313718332 , 12584 ,-16087 , 20424.2166312444 
 39570 , 2390.80925108505 , 11.1908838253414 , 12625 ,-16056 , 20425.1257278872 
 39760 , 2391.06176528603 , 11.2541969983031 , 12673 ,-16017 , 20424.2311483199 
 39950 , 2390.75432427553 , 11.3949901190741 , 12750 ,-15955 , 20423.6266368145 
 40140 , 2391.3148933174 , 11.3332800320079 , 12770 ,-15942 , 20425.9703319083 
 40330 , 2391.44275871708 , 11.380480359211 , 12823 ,-15899 , 20425.6586185122 
 40520 , 2392.70464969984 , 11.403101867666 , 12861 ,-15865 , 20423.1130340112 
 40710 , 2391.44506249536 , 11.453240550663 , 12916 ,-15821 , 20423.6896030076 
 40900 , 2391.51978713412 , 11.4692237782011 , 12956 ,-15784 , 20420.3964701962 
 41090 , 2390.74515941745 , 11.6167426435587 , 13031 ,-15726 , 20423.36987375 
 41280 , 2391.35130424352 , 11.5532478774898 , 13045 ,-15708 , 20418.4546183104 
 41470 , 2391.45212575469 , 11.5864839495082 , 13094 ,-15668 , 20419.0856798242 
 41660 , 2388.76454344654 , 12.4965218595985 , 13393 ,-15448 , 20445.36996486 
 41850 , 2392.15312460391 , 11.6599048464572 , 13191 ,-15583 , 20416.4730058842 
 42040 , 2390.91326374883 , 11.7033040953059 , 13234 ,-15544 , 20414.5705808376 
 42230 , 2392.06178385586 , 11.7321591136321 , 13273 ,-15505 , 20410.2316008418 
 42420 , 2391.25664718721 , 11.7794923513364 , 13322 ,-15467 , 20413.3234187871 
 42610 , 2391.6083264316 , 11.837503524191 , 13365 ,-15428 , 20411.9183076947 
 42800 , 2391.52210116102 , 11.8509069349568 , 13411 ,-15391 , 20414.156901523 
 42990 , 2391.86274438216 , 11.8967516841353 , 13458 ,-15349 , 20413.4652864231 
 43180 , 2392.04824118926 , 11.9160984248697 , 13497 ,-15306 , 20406.9263976719 
 43370 , 2391.37928045204 , 11.9884352545346 , 13553 ,-15267 , 20414.825446229 
 43560 , 2391.59314661214 , 11.989056650856 , 13597 ,-15226 , 20413.4633269321 
 43750 , 2391.88215219174 , 12.0107314950385 , 13627 ,-15190 , 20406.6466868028 
 43940 , 2392.11996744679 , 12.0877976877634 , 13683 ,-15143 , 20409.1875879468 
 44130 , 2391.46982002978 , 12.1341308105332 , 13728 ,-15102 , 20409.02712037 
 44320 , 2390.71582554243 , 12.1411861072369 , 13766 ,-15064 , 20406.5394420514 
 44510 , 2391.34931541624 , 12.1877314619159 , 13809 ,-15020 , 20403.1586035104 
 44700 , 2392.48259156005 , 12.228602088403 , 13855 ,-14979 , 20404.2021652404 
 44890 , 2391.05164372316 , 12.2849515532733 , 13902 ,-14937 , 20405.380981496 
 45080 , 2391.96398305691 , 12.2974920038245 , 13940 ,-14896 , 20401.3336818944 
 45270 , 2391.23719328542 , 12.3444662104224 , 13989 ,-14852 , 20402.7945389841 
 45460 , 2392.33805429577 , 13.1375578695917 , 14223 ,-14631 , 20404.8986765433 
 45650 , 2391.31395383063 , 12.4385145817857 , 14079 ,-14769 , 20404.4505439377 
 45840 , 2391.4142190255 , 12.4822463186835 , 14121 ,-14725 , 20401.6731176637 
 46030 , 2391.52802615635 , 12.5009834645969 , 14156 ,-14685 , 20397.0968767617 
 46220 , 2390.46135163636 , 12.522489226851 , 14203 ,-14642 , 20398.8571493601 
 46410 , 2391.18819664006 , 12.5843905986316 , 14241 ,-14597 , 20393.0990778744 
 46600 , 2391.30232040464 , 12.6294916891696 , 14286 ,-14556 , 20395.2673922163 
 46790 , 2391.88147270227 , 12.6176050542596 , 14323 ,-14520 , 20395.5565994165 
 46980 , 2392.01441051797 , 12.6893909220414 , 14370 ,-14471 , 20393.7917268957 
 47170 , 2392.01110676999 , 12.6863867239567 , 14400 ,-14437 , 20390.8550335684 
 47360 , 2393.38551745986 , 12.7547606675736 , 14446 ,-14386 , 20387.3468602464 
 47550 , 2391.43269721692 , 12.9000148749025 , 14523 ,-14318 , 20394.1818418881 
