,Frequency,Impedance,Phase,Real,Imaginary,Magnitude, 
0,10000.0,22680.541437503278,-10.959030334975079,-20.4,-213.2,214.17422730919762,
6,11050.0,23826.80203316866,-10.60117385296153,-14.6,-202.2,202.76587925835537,
7,11225.0,23396.9319856938,-11.434599416802994,-19.4,-205.6,206.767910142225,
8,11400.0,23259.40448519008,-10.248932295746064,-12.0,-207.8,208.1533544959404,
9,11575.0,23277.6242590687,-10.849829075944939,-13.2,-207.0,207.4243016580952,
10,11750.0,23379.56186604112,-10.9952106201438,-13.8,-205.6,206.065094876189,
11,11925.0,23155.05416248972,-11.71918147304778,-15.8,-208.0,208.60154670410702,
12,12100.0,23064.623833324018,-11.5919584986612,-14.8,-209.2,209.724566818522,
13,12275.0,23067.475776079118,-11.551644550807401,-14.4,-209.0,209.498914804501,
14,12450.0,22838.38602766402,-11.89233846478666,-15.2,-210.6,211.1512968620562,
15,12625.0,23258.698062024658,-12.5227355377452,-17.6,-206.2,206.9567319901452,
16,12800.0,22916.047301821778,-12.918893420192859,-19.2,-209.6,210.47892725352358,
17,12975.0,22518.223561183877,-12.919535712523881,-18.6,-214.2,215.01763861184622,
18,13150.0,22498.681714252558,-11.997575528692881,-14.0,-215.6,216.05738085971902,
19,13325.0,22738.94091127154,-11.5009191427764,-10.8,-213.0,213.27405467901582,
20,13500.0,23151.69219123506,-11.8544422548976,-11.0,-208.0,208.29730554536098,
21,13675.0,22860.6959428358,-12.73041729226256,-14.2,-209.8,210.2966435542246,
22,13850.0,22894.36567380974,-14.073060521291898,-19.8,-211.0,211.93581249656458,
23,14025.0,22627.31520225624,-13.158773972863361,-16.4,-213.8,214.42934848314022,
24,14200.0,22635.0965710464,-12.69508158723278,-13.2,-214.4,214.8110547950152,
25,14375.0,22811.148314855862,-12.08754305907874,-9.8,-212.2,212.42757473630041,
26,14550.0,23072.902724727937,-12.435278704446322,-10.4,-209.2,209.459900161431,
27,14725.0,23184.862251980223,-13.653518420068881,-14.2,-207.4,207.8967507202708,
28,14900.0,23108.9949181567,-13.957062289949238,-15.4,-208.2,208.77630890564237,
29,15075.0,23110.61622493782,-13.5212442665315,-13.8,-207.4,207.8994110793298,
30,15250.0,22983.56245033122,-13.360323629220861,-12.4,-210.4,210.7752087563844,
31,15425.0,22986.62295095254,-13.7985607566454,-13.8,-209.4,209.85542766862642,
32,15600.0,22826.554677659784,-14.42612662221832,-16.2,-209.8,210.43709503819636,
33,15775.0,22778.18542803434,-14.21449189331982,-15.4,-211.0,211.5649461050938,
34,15950.0,22728.48453448516,-14.74924161429558,-16.4,-211.8,212.4357036371454,
35,16125.0,22709.997430663883,-14.578042069186917,-15.2,-212.4,212.94347189195702,
36,16300.0,22840.647483858538,-14.688520078641758,-15.2,-210.8,211.348384748928,
37,16475.0,22997.482937596378,-14.94436819865324,-15.6,-209.4,209.98237497613718,
38,16650.0,22825.31888027768,-15.43078999074828,-17.4,-210.4,211.12346213144536,
39,16825.0,22603.50554357796,-15.777305502424003,-18.4,-213.2,213.9937386512226,
40,17000.0,22452.143302353383,-15.371641406925818,-16.2,-215.2,215.8139291394356,
41,17175.0,22521.81246686874,-14.931692293166742,-13.8,-214.6,215.04464733515678,
42,17350.0,22751.534900427403,-14.98988450092746,-12.8,-211.8,212.1868813885018,
43,17525.0,22870.54112991732,-15.8924086208711,-16.2,-210.2,210.82483846344923,
44,17700.0,22875.6161508519,-16.104475191690337,-17.0,-211.0,211.69500507438337,
45,17875.0,22345.459383635956,-15.93727551052812,-17.0,-216.0,216.6705362399794,
46,18050.0,22160.839538864682,-15.517934883513439,-14.4,-218.0,218.4809055688416,
47,18225.0,22268.71710277348,-15.21434079121694,-11.6,-217.2,217.51934156550902,
48,18400.0,22716.128098362482,-15.00582145760934,-9.8,-213.4,213.6302051336726,
49,18575.0,22985.558775938698,-15.26719393402702,-10.2,-209.2,209.4581978892374,
50,18750.0,23031.34562718198,-16.2058391457673,-13.2,-208.0,208.4208551280858,
51,18925.0,22968.05484812344,-17.12646515168488,-17.0,-208.2,208.9067238820826,
52,19100.0,22795.153993696596,-17.40131172872998,-18.0,-210.0,210.77065356488902,
53,19275.0,22736.27698836096,-17.472626134928962,-17.6,-211.2,211.93243476590084,
54,19450.0,22553.234504733446,-17.349812189920577,-17.0,-212.8,213.4812721978188,
55,19625.0,22572.19262291272,-17.76061283282094,-17.8,-213.2,213.944660687252,
56,19800.0,22735.663143128557,-17.416603826756578,-16.0,-211.2,211.8052611369592,
57,19975.0,22532.54136882876,-17.9199597753856,-17.8,-213.0,213.74601667813317,
58,20150.0,22500.63873285894,-18.0421009303181,-17.8,-213.2,213.94442591418436,
59,20325.0,22548.94370679146,-18.307347060660863,-18.4,-213.0,213.80035945617118,
60,20500.0,22380.7203030198,-18.62795621525372,-19.8,-214.0,214.9196527540978,
61,20675.0,22122.565874749816,-19.26066224540036,-21.0,-217.0,218.0245733188346,
62,20850.0,22127.984894237325,-18.37726009762726,-18.0,-217.6,218.34429037473177,
63,21025.0,22371.357404175997,-18.3933484308598,-16.8,-215.6,216.2553969870678,
64,21200.0,22432.58664208324,-18.6992960847186,-17.0,-215.0,215.6779024836432,
65,21375.0,22483.39705998014,-18.679693517410502,-16.8,-213.6,214.2633741348654,
66,21550.0,22500.33492194222,-18.921032805155217,-17.2,-214.0,214.6938087134386,
67,21725.0,22207.54937412998,-19.14703641960918,-18.0,-216.6,217.3485806454684,
68,21900.0,22086.61387407246,-19.132628962779382,-17.4,-218.0,218.70143720561276,
69,22075.0,22203.35232966264,-18.9154849251355,-16.2,-216.8,217.40601732397175,
70,22250.0,22252.2296549338,-18.905145546588738,-15.2,-216.4,216.9367308317158,
71,22425.0,22394.692723294917,-19.489496107908657,-16.8,-214.8,215.45963342596502,
72,22600.0,22332.44264653972,-20.2332617894551,-19.4,-214.6,215.481073819508,
73,22775.0,22292.12143177176,-19.898693976761617,-18.0,-215.8,216.551388289641,
74,22950.0,22105.386019172962,-19.88240349901402,-17.6,-217.6,218.3122551317624,
75,23125.0,22174.86501043284,-20.248130585825642,-18.2,-216.8,217.56901091090822,
76,23300.0,22167.341823149844,-20.237362827703283,-17.6,-216.6,217.3295352535808,
77,23475.0,22205.84107794278,-20.05152667701584,-16.8,-216.8,217.4505862712038,
78,23650.0,22071.743975367943,-20.908260136828318,-20.0,-217.4,218.32102433674422,
79,23825.0,22042.199899534156,-20.965840023131783,-19.4,-218.0,218.86306343623318,
80,24000.0,21807.2867047784,-20.33789990225284,-16.4,-220.4,221.01289138879082,
81,24175.0,22228.378972370178,-20.99496053922448,-19.0,-215.4,216.2453138568676,
82,24350.0,22169.24782005096,-21.400958622422582,-19.8,-216.8,217.70384597264837,
83,24525.0,22129.12386730456,-21.47489651962588,-19.4,-217.2,218.0693775679872,
84,24700.0,21752.357063799696,-21.56825232793286,-19.8,-220.8,221.6911759466112,
85,24875.0,21863.06837559704,-21.504620223282398,-19.0,-220.4,221.22650007245403,
86,25050.0,21893.11652544752,-21.58639669380126,-18.6,-219.6,220.38868225462937,
87,25225.0,21963.799369874083,-21.49381358796552,-17.0,-218.4,219.06471910392003,
88,25400.0,22080.576766513997,-22.058087888897063,-19.2,-218.0,218.8575332117594,
89,25575.0,21782.12685086824,-22.21616744880064,-20.0,-220.2,221.1117689820826,
90,25750.0,21676.07465918558,-22.38835541499126,-20.0,-221.8,222.702363194595,
91,25925.0,21641.135415188783,-22.14205800457542,-18.4,-223.0,223.7603013341954,
92,26100.0,21723.02896752262,-21.7022564190884,-15.6,-222.2,222.7547144805866,
93,26275.0,21848.37170178956,-22.39774250904826,-16.4,-220.0,220.61916570018178,
94,26450.0,22129.033812249523,-22.53824021625004,-17.4,-217.6,218.29797095885002,
95,26625.0,22172.254008400338,-22.852981883483302,-19.0,-216.4,217.2378216502992,
96,26800.0,21853.80163272912,-22.7314894585415,-19.6,-218.6,219.4867605961274,
97,26975.0,21815.525071249278,-23.9505429135531,-22.8,-219.6,220.7833294977648,
98,27150.0,21661.26909597154,-23.1328717632207,-20.2,-221.8,222.7286746702836,
99,27325.0,21694.070497807283,-23.38084865541716,-19.8,-221.2,222.08477224668718,
100,27500.0,21734.90182069126,-23.789364401165102,-20.4,-220.8,221.74110155627,
101,27675.0,21613.54380313426,-23.625448183236422,-20.0,-221.8,222.700842791304,
102,27850.0,21660.78976039862,-23.88268193029212,-20.2,-221.8,222.71912411134502,
103,28025.0,21572.188943002362,-23.9162608224493,-20.2,-222.8,223.71697202722157,
104,28200.0,21599.12527101154,-23.399522278958983,-18.6,-222.0,222.79561545399037,
105,28375.0,21754.86466533688,-24.388751332761778,-20.8,-221.2,222.20376561585218,
106,28550.0,21551.65873624976,-24.291990901799437,-19.6,-222.8,223.66628027776943,
107,28725.0,21682.083509311018,-24.97507472230502,-21.4,-221.8,222.83678910429518,
108,28900.0,21352.151390248877,-24.5584731743303,-19.8,-224.2,225.08359416525218,
109,29075.0,21471.408779713438,-25.05496740668766,-21.4,-223.4,224.4308667592902,
110,29250.0,21521.66072512644,-24.70429441851094,-19.8,-222.6,223.4798803509056,
111,29425.0,21402.20016924928,-25.30370973189998,-21.4,-224.0,225.02785417754663,
112,29600.0,21191.981681399502,-25.146995945601837,-21.6,-226.0,227.0643204247568,
113,29775.0,21224.911433564303,-25.289815482022924,-21.0,-226.4,227.38048702976462,
114,29950.0,21382.00744655708,-24.83083014634008,-18.4,-225.2,225.952506377197,
115,30125.0,21199.493331800542,-25.35838021215302,-19.6,-226.4,227.257279822918,
116,30300.0,21226.14818709988,-25.371672746259378,-19.2,-225.8,226.6263213331162,
117,30475.0,21552.002380762417,-25.675355705879717,-20.0,-222.6,223.498064217028,
118,30650.0,21438.42854213548,-26.06060718534398,-21.4,-223.2,224.2240566682338,
119,30825.0,21288.297390475658,-26.081950621093302,-21.2,-225.0,226.0035412354166,
120,31000.0,21428.362746384002,-26.04586657918776,-20.8,-224.4,225.3716996196732,
121,31175.0,21320.60549608564,-26.97191242568976,-23.0,-224.6,225.78877384347638,
122,31350.0,21294.749553152564,-26.37300829134518,-21.4,-225.0,226.0206194666352,
123,31525.0,21165.732242366303,-26.67777547318618,-22.2,-226.8,227.887920982154,
124,31700.0,21124.91333749478,-26.978563778596357,-22.6,-227.0,228.12427807133722,
125,31875.0,21073.24690902472,-26.8007407992124,-21.2,-227.2,228.19008916374477,
126,32050.0,21067.203860070797,-27.25589664866964,-22.8,-227.2,228.3425339878332,
127,32225.0,20984.74581535366,-27.562849279114538,-23.8,-228.4,229.63708260715697,
128,32400.0,20825.644121894562,-27.167666674174022,-22.6,-230.2,231.31156580742618,
129,32575.0,20845.613332966743,-27.449635946370357,-22.0,-230.2,231.26075923797939,
130,32750.0,20864.11722288376,-27.26411475480496,-20.6,-230.4,231.3233770260856,
131,32925.0,20822.86978643924,-27.358486266841556,-20.8,-230.4,231.3420066925868,
132,33100.0,21061.938173384522,-27.21136418220292,-20.0,-228.4,229.2757147238404,
133,33275.0,20798.43047796352,-28.32820182124152,-24.8,-229.4,230.7666274802582,
134,33450.0,20653.96713957428,-27.5392612487933,-20.4,-231.8,232.69990878134521,
135,33625.0,20627.597054342677,-27.881997690509742,-21.2,-233.4,234.3660181872916,
136,33800.0,20670.39610014938,-27.356479798041523,-18.8,-233.2,233.968088299708,
137,33975.0,20665.60483897314,-27.583904088310998,-18.0,-233.0,233.7025338064584,
138,34150.0,20925.327471006218,-27.505832575668382,-16.8,-229.4,230.0177485204728,
139,34325.0,21020.76846717606,-28.23074477242688,-19.6,-227.6,228.44306374994622,
140,34500.0,20887.81937607936,-28.92207052699522,-22.6,-229.0,230.1151942671576,
141,34675.0,20802.8182099637,-29.03078617651364,-22.8,-229.8,230.93187187419056,
142,34850.0,20772.01774655074,-29.228825545938662,-23.0,-230.4,231.55692198683784,
143,35025.0,20763.09931453598,-28.76057121627604,-20.8,-230.6,231.54288992121118,
144,35200.0,20682.58127719036,-29.225792589945662,-21.8,-231.6,232.6243028746474,
145,35375.0,20637.26130859364,-29.134976897177125,-21.4,-233.0,234.00113918929242,
146,35550.0,20655.43908084798,-28.96455160839478,-20.6,-233.2,234.11439620987002,
147,35725.0,20520.030832357043,-29.33195047610378,-20.8,-234.0,234.92300466301998,
148,35900.0,20596.567080743484,-28.98235559288304,-19.6,-232.8,233.62735358214263,
149,36075.0,20240.80391774194,-29.33242993316494,-19.4,-236.2,237.00875791071863,
150,36250.0,20627.28817916374,-29.58361964034982,-20.6,-232.2,233.1136553704418,
151,36425.0,20636.97728637504,-30.216692458835336,-22.4,-232.0,233.08517786948877,
152,36600.0,20528.53182383264,-30.26592735704106,-22.6,-233.0,234.09596468831995,
153,36775.0,20490.815962924178,-30.33588741940934,-22.8,-233.2,234.3137495234536,
154,36950.0,20441.751829434263,-30.341348380370697,-22.2,-235.0,236.0498324535668,
155,37125.0,20487.223914337002,-30.42267870399948,-21.6,-234.4,235.400735879297,
156,37300.0,20203.671066648058,-30.253662925230902,-20.8,-236.6,237.51346362839098,
157,37475.0,20237.49794491046,-30.478869046363478,-22.0,-237.6,238.63299649477563,
158,37650.0,20250.87401283578,-30.88716945106386,-21.8,-237.0,238.00724993332378,
159,37825.0,20309.266051424398,-30.81688155972182,-21.0,-236.6,237.54136201076457,
160,38000.0,20347.806959368078,-30.59363345672732,-19.8,-235.8,236.63029504731222,
161,38175.0,20359.79083656838,-30.809268858289578,-20.0,-235.4,236.2567633337162,
162,38350.0,20400.9906321735,-31.33508721660312,-22.2,-234.4,235.45091209128924,
163,38525.0,20202.51158635954,-31.324827015145996,-21.6,-237.8,238.79252716319198,
164,38700.0,20257.685290148278,-31.77594639972252,-23.2,-236.2,237.3373005575882,
165,38875.0,20061.44378631458,-31.867469513270397,-23.6,-238.6,239.7647365222896,
166,39050.0,20062.97809030516,-31.696854227071935,-22.8,-239.0,240.08934113134325,
167,39225.0,20102.6503616976,-32.030513045327325,-23.2,-237.8,238.93018528562942,
168,39400.0,20101.417491433018,-31.89795818558118,-21.8,-238.4,239.397253973431,
169,39575.0,20104.46989386902,-32.53191753373554,-23.2,-238.0,239.1392071932168,
170,39750.0,20050.8858786062,-32.526570185640466,-23.8,-238.6,239.78716440912723,
171,39925.0,19986.755355747122,-32.5390504672848,-24.0,-239.0,240.20513234336698,
172,40100.0,19814.19299575104,-32.7232267673342,-24.2,-241.2,242.419613965683,
173,40275.0,19812.29650660598,-32.57702310882422,-22.8,-242.4,243.47146235224923,
174,40450.0,19780.44950489736,-32.72703876806165,-24.0,-241.8,243.019644070153,
175,40625.0,19870.9145416253,-32.37078302783959,-20.4,-241.8,242.66034357167123,
176,40800.0,19846.87161481114,-32.53304833046305,-20.2,-242.0,242.85115183706563,
177,40975.0,19847.0203021471,-32.705078241271494,-21.0,-241.6,242.5146288149674,
178,41150.0,19772.913437760762,-32.95475644186284,-22.0,-242.2,243.19812062202263,
179,41325.0,19694.86867157578,-33.277712920061376,-22.6,-243.6,244.65333926817303,
180,41500.0,19849.41052099956,-32.51229221655246,-17.6,-241.8,242.44838402053261,
181,41675.0,19692.21150328514,-32.79458597410754,-19.0,-244.2,244.93905424154076,
182,41850.0,19757.82859388316,-32.94044931556816,-19.0,-243.4,244.1434603753752,
183,42025.0,19839.112601712743,-33.23662790374116,-19.4,-241.6,242.3829581095888,
184,42200.0,19781.984089390557,-33.50594291008896,-20.6,-242.2,243.07686316639638,
185,42375.0,19803.28283530996,-33.73633826458732,-21.2,-241.8,242.72825618311498,
186,42550.0,19935.531757007422,-33.89657141032568,-22.6,-239.6,240.6743524814408,
187,42725.0,19600.13633836102,-33.99373449498789,-21.6,-244.2,245.1547849606574,
188,42900.0,19537.7420700667,-34.17214185832234,-22.0,-245.2,246.19069973578203,
189,43075.0,19508.730165512778,-34.235175420679624,-21.6,-245.4,246.3492078644822,
190,43250.0,19535.573355505978,-34.16740072545559,-21.0,-245.6,246.4970184534282,
191,43425.0,19472.27096180316,-34.3175214389854,-21.0,-246.2,247.0940102003936,
192,43600.0,19400.49277084242,-34.171995785017714,-19.8,-247.6,248.39726834628317,
193,43775.0,19466.48798757976,-34.034870149794976,-19.0,-246.6,247.3340364303408,
194,43950.0,19527.613538202222,-34.86948049206397,-20.6,-245.0,245.8649916769378,
195,44125.0,19555.58062944828,-34.845141936754516,-20.4,-245.0,245.852592185529,
196,44300.0,19476.62446570588,-35.31455416915384,-22.2,-245.4,246.40431982672982,
197,44475.0,19428.00206426072,-35.34811661226961,-22.4,-246.0,247.02006846879004,
198,44650.0,19276.790251918857,-35.19119902519444,-21.2,-248.8,249.70355920435858,
199,44825.0,19250.60817035508,-35.466401979511396,-22.2,-249.2,250.19253866544324,
200,45000.0,19292.765535921695,-35.35124545102572,-21.0,-248.2,249.0896409359484,
201,45175.0,19201.89777412046,-35.48243594229604,-20.8,-249.0,249.86819850506458,
202,45350.0,19352.70528017006,-35.54719865629296,-21.4,-248.6,249.527512089015,
203,45525.0,19258.20954777748,-35.47791771128712,-19.6,-249.4,250.17106203377756,
204,45700.0,19199.29587587422,-35.53959685281272,-19.2,-250.0,250.7406800443602,
205,45875.0,19072.124795485703,-35.40302529654163,-19.0,-251.2,251.92833342589762,
206,46050.0,19289.040556934102,-35.84262201586684,-19.4,-248.2,248.957602842716,
207,46225.0,19079.853865424702,-36.16463696413233,-20.6,-249.8,250.66590439809139,
208,46400.0,19186.88168312482,-36.53446880288122,-22.0,-249.0,249.9760920465294,
209,46575.0,19062.96292257324,-36.29176863809276,-20.6,-251.4,252.2445698406692,
210,46750.0,18996.955982057163,-36.31478628315204,-20.4,-252.2,253.0260603870266,
211,46925.0,19000.834204092178,-36.44675568874736,-20.4,-252.2,253.0250033803568,
212,47100.0,19053.75415456568,-36.45573608753473,-19.8,-251.6,252.3810090444414,
213,47275.0,18978.786151952045,-36.69584590609106,-20.2,-252.4,253.20928336749802,
214,47450.0,18975.299118127055,-36.44087186153625,-19.6,-252.8,253.56618624154316,
215,47625.0,18905.48681739056,-37.35304665717346,-22.4,-253.4,254.39301211767503,
216,47800.0,18862.28685774332,-37.013725953852905,-20.2,-254.0,254.80546627204262,
217,47975.0,18817.55414514976,-37.057781140981504,-20.6,-254.8,255.6384792743116,
218,48150.0,18831.05596527204,-37.12571007288865,-19.4,-254.4,255.1409970774368,
219,48325.0,18792.727099147938,-37.43106779441616,-20.8,-254.8,255.6503630085186,
220,48500.0,18801.21890437966,-37.43022255289006,-20.2,-254.8,255.60247392218162,
221,48675.0,18781.73197474656,-37.38529184187436,-19.6,-255.4,256.1547523140204,
222,48850.0,18740.29749822858,-37.58793787519334,-19.8,-255.8,256.566448448534,
223,49025.0,18689.559881467943,-37.609577624893134,-19.2,-256.4,257.1184205749602,
224,49200.0,18681.64719338746,-37.86710913369387,-20.2,-256.2,256.9976932621556,
225,49375.0,18550.941783417176,-38.0182071564468,-20.0,-258.4,259.1803338586012,
226,49550.0,18680.07879633622,-37.90937729451419,-19.0,-256.6,257.3082830969412,
227,49725.0,18679.946918176178,-37.81695764052626,-18.6,-258.0,258.6943181956506,
228,49900.0,18656.523320113563,-37.797930963847456,-18.4,-256.4,257.0717247620154,
229,50075.0,18611.07853922478,-38.24072340028094,-18.8,-257.8,258.4903100707502,
230,50250.0,18688.6326017338,-38.46509123359397,-20.2,-256.0,256.8070839043312,
231,50425.0,18544.77791651512,-38.56022914826984,-19.8,-258.0,258.7617386157506,
232,50600.0,18493.597277666257,-38.6410240951848,-19.8,-259.0,259.7639439255602,
233,50775.0,18550.87071921144,-38.74179983042908,-18.8,-258.6,259.2871729686802,
234,50950.0,18478.34724020416,-38.7115942165229,-18.4,-259.2,259.8562274971988,
235,51125.0,18318.02816026262,-38.53903400595314,-18.2,-261.2,261.8371223406322,
236,51300.0,18432.91904530924,-39.09153469585672,-19.2,-259.8,260.5095614057184,
237,51475.0,18363.638178413115,-38.94723466432816,-18.4,-261.0,261.6515572701902,
238,51650.0,18297.93603899318,-39.14448649166014,-18.6,-261.8,262.4620900295726,
239,51825.0,18302.95142610126,-39.23046020668572,-18.0,-261.8,262.42259289804923,
240,52000.0,18355.11266369484,-39.251156060477804,-17.8,-261.6,262.206196757675,
241,52175.0,18323.158333777996,-39.03399584132596,-17.4,-262.4,262.9788818144384,
242,52350.0,18200.574928225724,-39.25678580675351,-17.8,-263.6,264.2094083683022,
243,52525.0,18217.470747258656,-39.3475486544463,-17.0,-263.6,264.15511675045764,
244,52700.0,18147.027274458138,-39.314958684631414,-16.4,-264.0,264.51403578528397,
245,52875.0,18190.88906325884,-40.12326620875298,-18.8,-264.2,264.872562652396,
246,53050.0,18036.7134790573,-39.59659960388437,-16.6,-265.8,266.324332862502,
247,53225.0,18028.97938934874,-39.678688916611584,-16.0,-266.0,266.48870750853416,
248,53400.0,18023.01104890336,-39.766350377560215,-15.8,-266.2,266.6711519419272,
