,Frequency,Impedance,Phase,Real,Imaginary,Magnitude, 
0,10000.0,20919.286036005484,-10.23672865024464,-19.2,-231.4,232.1955567620298,
1,10175.0,20507.239106798,-9.224266408470339,-13.8,-238.6,238.99906036747362,
5,10875.0,21797.614777334078,-8.630613532235294,-6.6,-220.8,220.8991730521504,
6,11050.0,21752.48515711622,-9.422970256892173,-11.4,-221.8,222.1270164925476,
8,11400.0,21300.57717411896,-9.615432137495697,-10.6,-227.0,227.25327548385258,
9,11575.0,21508.19450977294,-10.059218362187826,-11.2,-224.2,224.4827518651502,
10,11750.0,21526.88014530962,-10.53560199251206,-13.2,-223.4,223.7916853440418,
11,11925.0,21315.878020524797,-10.767292824365958,-13.4,-226.2,226.6019548781522,
12,12100.0,21276.19138193992,-10.671317230214779,-12.4,-227.0,227.34355098645455,
13,12275.0,21406.80681732144,-10.81036927954016,-12.6,-225.4,225.7534326969876,
14,12450.0,21381.59586737756,-10.96775325871986,-12.6,-224.8,225.15334275371,
15,12625.0,21372.453406164343,-11.768256708049979,-16.2,-224.6,225.19030629891057,
16,12800.0,21147.83113643594,-12.110018177708898,-17.6,-227.4,228.08129936569858,
17,12975.0,20884.952372668464,-12.160687635850302,-17.0,-231.2,231.83391586637399,
18,13150.0,20728.8829908433,-11.115587244228681,-11.6,-234.2,234.48844588284018,
19,13325.0,20959.62201737048,-10.826989398368461,-9.0,-231.2,231.375936997917,
20,13500.0,21169.310073951558,-11.13909162609844,-9.2,-227.6,227.7971721412776,
21,13675.0,21350.1149658972,-12.26079334834522,-13.4,-224.8,225.2071808570484,
22,13850.0,21200.044609276298,-12.27420076513036,-14.2,-228.4,228.84700226326123,
23,14025.0,20855.43885818146,-12.27273249263366,-14.2,-232.2,232.638477739434,
24,14200.0,20951.6349146597,-11.88829807009686,-11.0,-231.8,232.06682936734083,
25,14375.0,20966.828426628057,-11.22815546056722,-7.2,-231.0,231.1125271345226,
26,14550.0,21295.00596270432,-11.559012371905641,-7.8,-226.8,226.9344757706484,
27,14725.0,21284.892367021697,-12.26596342259576,-10.0,-226.2,226.4322228014114,
28,14900.0,21184.776929884323,-12.797365838857,-12.2,-227.4,227.73101573433678,
29,15075.0,20966.80656683594,-13.019390465626959,-13.2,-228.8,229.198911048071,
30,15250.0,21356.63142937676,-12.6626307153689,-10.6,-226.6,226.852914904295,
31,15425.0,21166.26748385452,-12.94620205889766,-11.6,-227.6,227.89680589584782,
32,15600.0,21117.532081195,-12.78208910857216,-11.0,-227.2,227.47200867785,
33,15775.0,21152.00683350098,-13.51038693675952,-13.8,-227.4,227.83062639475938,
34,15950.0,21066.31955063448,-13.67253274125444,-13.4,-228.8,229.192570466582,
35,16125.0,21029.154819137202,-13.676220805650757,-12.8,-229.6,229.95693462604777,
36,16300.0,21171.314578186,-13.93403969858048,-13.4,-227.6,227.9954422754866,
37,16475.0,21197.65914700088,-14.053252019471,-13.4,-227.4,227.79746854206738,
38,16650.0,21091.9950792853,-14.4175370953775,-14.8,-228.0,228.48366265512277,
39,16825.0,20984.213272482397,-14.52740216730892,-14.8,-230.0,230.4787369762174,
40,17000.0,20723.52360786348,-14.451662076818101,-13.8,-233.4,233.81087736014462,
41,17175.0,20812.63910753672,-14.15849766392254,-11.8,-232.4,232.70055916119,
42,17350.0,21003.397295317558,-14.174586817200938,-10.6,-229.6,229.8451140704336,
43,17525.0,21041.44252577616,-14.63691657343334,-12.6,-228.8,229.14722255438977,
44,17700.0,21117.70720278292,-15.245741179124721,-15.0,-228.8,229.295347507475,
45,17875.0,20746.7069512257,-15.36905720912684,-16.0,-232.8,233.3525596755384,
46,18050.0,20419.575423455142,-14.6386090627946,-12.0,-236.8,237.1077199995832,
47,18225.0,20719.74523682608,-14.363526312178621,-9.0,-233.6,233.7759345148526,
48,18400.0,20908.877189542523,-14.054268481506739,-6.8,-232.0,232.1025868144884,
49,18575.0,21195.26791419922,-14.39661522710232,-7.6,-227.0,227.1323472095004,
50,18750.0,21314.92509931774,-15.066616206394361,-9.8,-225.0,225.21520592536962,
51,18925.0,21193.16274077986,-15.85062282557108,-13.4,-226.0,226.3973935361208,
52,19100.0,21046.49001693004,-16.119201516082477,-14.4,-227.8,228.2576482438194,
53,19275.0,20941.3544684388,-16.39790076167078,-14.8,-229.6,230.07780509839017,
54,19450.0,20829.871648357122,-16.548113384413544,-15.2,-230.6,231.13007336239562,
55,19625.0,20807.337002128002,-16.5930546204889,-14.6,-231.6,232.0611573028246,
56,19800.0,20934.1633859629,-16.47431881347512,-13.6,-229.6,230.01092512573138,
57,19975.0,20794.18555192126,-16.55779229339754,-13.8,-231.2,231.61187375321197,
58,20150.0,20979.55498656936,-16.971602829094984,-14.8,-229.0,229.47958258246223,
59,20325.0,20916.72895253532,-17.054165382318864,-14.8,-230.0,230.47755523577098,
60,20500.0,20743.796153572337,-17.69943837900628,-17.6,-231.2,231.8808926511496,
61,20675.0,20564.9605285517,-17.597917759048162,-15.8,-234.0,234.5377848233552,
62,20850.0,20608.6475582483,-17.16967605302094,-14.4,-234.0,234.4449488960582,
63,21025.0,20621.320769655737,-17.209596059459198,-13.4,-234.2,234.58593796031082,
64,21200.0,20871.670821612322,-17.395256171676763,-13.0,-231.4,231.76918726075718,
65,21375.0,20707.7004481474,-17.581838174615743,-13.8,-232.2,232.61182548030402,
66,21550.0,20708.39309525422,-17.8633606859417,-14.4,-232.8,233.24713490009222,
67,21725.0,20618.35303828312,-18.119431170219663,-15.2,-233.6,234.0944385074302,
68,21900.0,20448.69494086496,-17.966845799097317,-14.0,-235.8,236.2179191414516,
69,22075.0,20543.103135702702,-17.812138867958204,-13.0,-234.6,234.96408262793278,
70,22250.0,20673.06077193478,-17.78332316386234,-11.8,-233.2,233.50061345560022,
71,22425.0,20712.64132022886,-18.11728079252004,-12.6,-232.6,232.9443304734246,
72,22600.0,20700.47881029122,-18.368353069081543,-13.4,-232.0,232.402844709117,
73,22775.0,20733.789004000897,-18.57658329927336,-14.0,-232.4,232.8279473463518,
74,22950.0,20533.92885261778,-18.6258059685417,-13.8,-234.6,235.01919180422078,
75,23125.0,20613.510516706483,-18.92677760786452,-14.2,-233.6,234.03933485945777,
76,23300.0,20635.656586692963,-19.13028107098182,-14.4,-233.0,233.45359409687597,
77,23475.0,20438.481923845062,-19.11654847796762,-14.4,-235.8,236.2506057898704,
78,23650.0,20550.5258597395,-19.318988857608158,-15.0,-234.0,234.481073296446,
79,23825.0,20418.458207407337,-19.47166733564496,-14.8,-235.8,236.264357339073,
80,24000.0,20095.692696104063,-19.57236652563898,-14.6,-239.4,239.84894536163978,
81,24175.0,20351.461173995856,-19.684844186246497,-15.4,-235.6,236.12961759860823,
82,24350.0,20469.69699992286,-19.39087352824916,-13.2,-235.4,235.77599646936818,
83,24525.0,20400.795335849918,-20.24816737675948,-16.0,-236.0,236.5434976614484,
84,24700.0,20300.883463882063,-20.30730435020634,-16.0,-237.0,237.54839702964802,
85,24875.0,20390.42126906708,-19.82160363367896,-13.4,-236.8,237.1884421975438,
86,25050.0,20320.00174988468,-20.22141611170364,-14.4,-237.0,237.43832554489398,
87,25225.0,20384.072316512,-20.49101541689824,-14.2,-235.6,236.03222548920422,
88,25400.0,20393.445618898462,-20.89989317917242,-16.0,-236.4,236.9440041098424,
89,25575.0,20208.10050710294,-20.825555829857556,-15.8,-237.8,238.3255599194078,
90,25750.0,20133.6316642154,-21.060419054784056,-16.0,-239.2,239.73702306224783,
91,25925.0,20146.23058263422,-20.52508202913412,-13.0,-240.0,240.35265513159962,
92,26100.0,20195.76614319598,-20.02835550268456,-9.8,-239.4,239.6030310017642,
93,26275.0,20332.945540181398,-20.65137832135778,-10.4,-236.8,237.04957746249443,
94,26450.0,20527.282013136057,-20.938164671300598,-12.2,-235.0,235.3245261734262,
95,26625.0,20509.738169363638,-21.300303354516256,-14.2,-234.4,234.83789789255042,
96,26800.0,20513.97552222564,-21.379917922676402,-15.4,-233.2,233.74724236616822,
97,26975.0,20315.31445798384,-21.69702572623448,-15.2,-236.6,237.09059966103877,
98,27150.0,20159.15553883784,-21.659913932581823,-15.6,-238.8,239.3264587852478,
99,27325.0,20149.86080791138,-21.95868189988984,-15.4,-238.6,239.09697858445838,
100,27500.0,20205.823107125158,-22.2602816151172,-15.6,-238.0,238.51121354428378,
101,27675.0,20095.304083598083,-22.20689013855,-15.6,-239.0,239.50985994171083,
102,27850.0,20125.9205975389,-22.362621429326403,-15.4,-239.2,239.6965227380702,
103,28025.0,20115.8142135813,-22.416808595450938,-15.4,-239.4,239.89973976850743,
104,28200.0,20103.09842569266,-22.440132533779078,-16.0,-238.8,239.3519673761848,
105,28375.0,19999.299994667577,-22.763590543503362,-15.8,-241.2,241.7204940351474,
106,28550.0,20110.50923637858,-22.849901658952017,-15.0,-239.2,239.6705890043858,
107,28725.0,20096.718041890803,-23.47437695448424,-16.8,-239.8,240.40079655197277,
108,28900.0,19973.4792268005,-22.9391337429467,-14.4,-240.2,240.6347717708736,
109,29075.0,20051.65818378734,-23.35182556443724,-15.8,-239.8,240.3212006248322,
110,29250.0,19934.56134353808,-23.13868883802224,-14.8,-240.8,241.2555085916344,
111,29425.0,20039.07366544598,-23.663343666712624,-16.0,-239.8,240.33407547766083,
112,29600.0,20027.12039417844,-23.82969065041304,-17.4,-239.6,240.2392553481768,
113,29775.0,19774.183340846957,-23.469701517316583,-14.8,-243.6,244.05024121704437,
114,29950.0,19826.43770006456,-23.7837301305569,-15.4,-243.2,243.68755016514197,
115,30125.0,19927.50877563174,-23.492028355188218,-13.0,-241.4,241.7521768980584,
116,30300.0,19813.38714347806,-23.77106657073178,-13.8,-242.4,242.800713802021,
117,30475.0,19893.5612582674,-24.23712372292972,-15.6,-241.6,242.10459715824476,
118,30650.0,19800.72653836502,-24.5045249120782,-16.6,-242.2,242.771911406556,
119,30825.0,19865.225564307762,-24.6256324035382,-16.6,-241.6,242.16996386321298,
120,31000.0,19851.02458737698,-24.799109540658783,-17.2,-242.6,243.21761331700299,
121,31175.0,19791.703990810838,-25.18425609650122,-17.2,-242.6,243.2254522596364,
122,31350.0,19828.57264629288,-24.71804867146316,-16.0,-242.2,242.738425598286,
123,31525.0,19680.474018325862,-25.298510415041857,-18.0,-244.4,245.0674086704002,
124,31700.0,19775.1677820268,-24.9168881081064,-15.4,-243.2,243.6892430635266,
125,31875.0,19696.5411254837,-25.274157226286384,-16.2,-243.6,244.13838193057964,
126,32050.0,19636.73440227004,-25.45701957305998,-16.8,-244.4,244.97698771598638,
127,32225.0,19602.19682174946,-25.71919929171788,-17.6,-245.2,245.83130042424324,
128,32400.0,19471.66180499312,-25.49883399258892,-17.0,-246.8,247.386414368238,
129,32575.0,19507.90416773576,-25.69998933112542,-16.0,-246.6,247.12218713100742,
130,32750.0,19489.041787253078,-25.5804976983567,-14.8,-247.2,247.64461415332622,
131,32925.0,19482.8946506802,-25.677341083805697,-15.0,-246.8,247.2571027030594,
132,33100.0,19453.199220302242,-25.443215353867703,-14.0,-247.8,248.1977169289832,
133,33275.0,19355.084603022697,-25.341137323011843,-13.8,-247.6,247.994585063542,
134,33450.0,19249.81546522094,-26.04440359900884,-15.4,-249.2,249.682673218957,
135,33625.0,19316.83960641472,-26.17482047477136,-15.2,-249.8,250.26553635804981,
136,33800.0,19337.407613067062,-25.586907637390404,-12.4,-249.8,250.11152249907383,
137,33975.0,19437.51518501152,-25.79651648335684,-11.4,-248.2,248.46604654235261,
138,34150.0,19543.607336044402,-26.015583747857175,-11.6,-246.0,246.27383219935282,
139,34325.0,19602.2819884262,-26.4442105930844,-13.4,-244.6,244.9681326246784,
140,34500.0,19539.545734986583,-27.247508797957618,-17.0,-245.4,245.9881321229328,
141,34675.0,19484.683809495218,-27.17709187248778,-16.4,-246.0,246.54735687759262,
142,34850.0,19350.00527989812,-27.403096219771886,-16.8,-248.0,248.57454239817056,
143,35025.0,19375.6107139967,-27.2135015414024,-15.6,-247.6,248.1172561358118,
144,35200.0,19310.48391615818,-27.576677436540685,-16.2,-248.6,249.13018541899902,
145,35375.0,19374.28656992904,-27.335229186386062,-15.0,-248.8,249.25831193515242,
146,35550.0,19295.49097334512,-27.11767530337888,-14.0,-250.2,250.59393832495363,
147,35725.0,19246.935057673738,-27.685720112854717,-15.0,-250.0,250.45118711985236,
148,35900.0,19204.128101198738,-27.23374259095342,-13.4,-250.2,250.56066079044976,
149,36075.0,19163.0475074758,-28.40348961084902,-16.4,-249.8,250.36370345565578,
150,36250.0,19200.119228588817,-27.900955406555898,-14.8,-250.0,250.4388135016828,
151,36425.0,19253.9457910736,-28.0502329829257,-14.6,-249.4,249.82977116258058,
152,36600.0,19201.895295216058,-28.253014283951835,-15.4,-249.8,250.2747263368154,
153,36775.0,19073.81857451362,-28.39465683024668,-16.0,-251.2,251.7090428750254,
154,36950.0,19245.9634575436,-28.60474716320556,-16.0,-250.2,250.7120221583976,
155,37125.0,19069.8996511131,-28.69270097162636,-15.6,-252.4,252.88580770991257,
156,37300.0,18954.85731227704,-28.900973572223222,-16.2,-252.6,253.1308141210556,
157,37475.0,19118.99985773574,-28.40858569248126,-14.2,-252.2,252.60068312103922,
158,37650.0,18969.199190788902,-29.154086326661883,-15.6,-253.6,254.08279225405258,
159,37825.0,19033.067503826718,-29.13542676368624,-15.0,-253.0,253.4483993961078,
160,38000.0,18988.92963554878,-28.8226712542058,-13.4,-253.2,253.55478321405462,
161,38175.0,19113.31981637266,-29.41516205456586,-15.2,-251.2,251.6605725834154,
162,38350.0,19072.50181860604,-29.33994531538982,-15.0,-251.4,251.85040590546924,
163,38525.0,19167.144389395442,-29.78087739214118,-16.0,-251.2,251.71186648024678,
164,38700.0,18919.08258990302,-29.820502820324997,-16.2,-253.6,254.1180309938656,
165,38875.0,18838.98267177656,-29.85729607747092,-16.2,-254.8,255.31967319268279,
166,39050.0,18800.26008901452,-29.466407558492175,-14.4,-255.8,256.2121427189948,
167,39225.0,18781.35358316598,-30.180849356469302,-16.6,-255.2,255.74158926270974,
168,39400.0,18896.6185030867,-30.09392940200818,-15.2,-254.2,254.65525085288823,
169,39575.0,18864.02135521174,-30.472401023882703,-15.6,-254.4,254.88420837146182,
170,39750.0,18842.996899412858,-30.56155748485986,-16.6,-254.6,255.1425129748884,
171,39925.0,18660.35386613882,-30.326458272755882,-15.8,-256.8,257.2883462179214,
172,40100.0,18563.356602654057,-30.71484034755062,-16.8,-258.2,258.7486911541268,
173,40275.0,18575.445588801864,-30.646957554809283,-15.6,-259.2,259.67108815597123,
174,40450.0,18443.21202753046,-30.12231683169012,-14.0,-260.2,260.6167377339318,
175,40625.0,18633.908286601763,-30.561034041316,-13.6,-258.4,258.7588908311642,
176,40800.0,18642.927755187142,-30.68850300365324,-13.2,-258.2,258.5391952038028,
177,40975.0,18686.78658618668,-30.80797767597728,-13.8,-257.2,257.57268072058605,
178,41150.0,18577.820281424276,-31.086157576502917,-15.0,-258.4,258.836503327872,
179,41325.0,18470.126738558458,-31.360249540353742,-15.4,-260.4,260.85729017449705,
180,41500.0,18411.4985731156,-31.46268928809028,-14.2,-261.0,261.3922483057976,
181,41675.0,18463.132791818283,-30.80217608390072,-11.2,-261.0,261.2405029838486,
182,41850.0,18548.31720843396,-31.034167046998345,-11.6,-259.8,260.060821673952,
183,42025.0,18603.91212741528,-31.25986704298426,-11.8,-258.2,258.4712392128944,
184,42200.0,18622.75625617088,-31.887816599073524,-14.6,-257.8,258.2204958162388,
185,42375.0,18556.93754866148,-31.956086821997026,-14.6,-258.6,259.0138523826994,
186,42550.0,18433.16278403916,-31.81960494160554,-15.0,-259.8,260.2609943478392,
187,42725.0,18377.92598489732,-32.31552908213616,-15.4,-261.0,261.45591622155104,
188,42900.0,18375.812731263803,-32.02088743672523,-13.6,-261.4,261.755437673406,
189,43075.0,18346.77004791452,-32.180625067227545,-13.6,-261.6,261.9543721440526,
190,43250.0,18338.52225486708,-32.336513081578815,-14.0,-262.2,262.57429663489654,
191,43425.0,18270.013650259538,-32.40342800502446,-13.6,-263.0,263.355181044314,
192,43600.0,18261.73353074726,-32.20423154622484,-12.0,-263.6,263.8745847806922,
193,43775.0,18314.67580920204,-32.24288933220116,-12.0,-262.6,262.87472972430703,
194,43950.0,18322.047850960218,-32.46947080187504,-11.0,-261.8,262.0348642854416,
195,44125.0,18400.244531564556,-32.76112358990882,-12.2,-261.0,261.286051364046,
196,44300.0,18305.73870005144,-33.162167582645836,-13.8,-261.8,262.1645372852202,
197,44475.0,18164.14297142754,-33.3127408900043,-14.6,-263.8,264.20498012855643,
198,44650.0,18167.8347528637,-33.263232899290145,-13.6,-264.6,264.9497721517092,
199,44825.0,18207.22231889354,-33.146386529037144,-12.8,-264.2,264.511833559214,
200,45000.0,18125.31234334252,-33.367807725554385,-13.2,-264.8,265.12913135080174,
201,45175.0,18030.723098960378,-33.37871079758416,-12.4,-265.8,266.0895223932742,
202,45350.0,18188.6232424142,-33.30571830465118,-12.4,-265.2,265.4903243266054,
203,45525.0,18025.366026973243,-33.60037275312522,-12.2,-267.0,267.280372549219,
204,45700.0,18068.359282514943,-33.55642092851536,-11.2,-266.2,266.4357530369122,
205,45875.0,18196.34700348654,-33.50729285128922,-11.2,-263.8,264.0394560194278,
206,46050.0,18132.09493952008,-33.79716074764444,-11.2,-264.6,264.8395792766636,
207,46225.0,17970.286988021042,-34.3350577891416,-13.4,-265.8,266.1445953818778,
208,46400.0,18073.622583049,-34.51098175458746,-14.0,-265.0,265.3719855363244,
209,46575.0,17998.56337950494,-34.52593463789868,-13.6,-266.8,267.1506683536426,
210,46750.0,17917.91926927928,-34.210603382852284,-11.8,-268.0,268.2599495009916,
211,46925.0,17908.25705074892,-34.3410518834702,-11.8,-268.2,268.4619158751384,
212,47100.0,17939.966012022815,-34.392181550726306,-11.4,-267.8,268.0436836289674,
213,47275.0,17884.51136801588,-34.8070391484393,-12.6,-268.4,268.69905120860585,
214,47450.0,17905.24971747194,-34.776877771190804,-13.0,-268.4,268.721035064994,
215,47625.0,17803.796707437483,-35.10233688423172,-13.2,-269.8,270.13025313050184,
216,47800.0,17834.64348835734,-35.10382696627374,-12.4,-269.2,269.4866012538146,
217,47975.0,17789.29983302486,-34.76489123032589,-11.0,-270.2,270.427319329089,
218,48150.0,17764.3829425277,-35.22241387242788,-11.6,-270.2,270.4493811779086,
219,48325.0,17723.9528772931,-35.30103461051984,-12.0,-270.8,271.0664549954878,
220,48500.0,17691.16054616162,-35.30135870432674,-11.4,-271.4,271.63969561511976,
221,48675.0,17673.22081417236,-35.31196033910396,-11.0,-272.0,272.223744413676,
222,48850.0,17688.77170616752,-35.43827677618542,-10.8,-271.6,271.8156537390788,
223,49025.0,17637.242223467758,-35.76661741928084,-11.6,-272.2,272.4475192387564,
224,49200.0,17607.893177823942,-35.88114565701872,-12.0,-272.4,272.6692604937474,
225,49375.0,17571.03842444818,-35.9374542210471,-11.2,-273.4,273.6312024382894,
226,49550.0,17554.388264803,-35.892330548235186,-10.6,-273.6,273.8071804140802,
227,49725.0,17490.376862984478,-35.8902117516244,-10.6,-276.0,276.235216443891,
228,49900.0,17458.130559727197,-36.27890027250718,-12.4,-274.4,274.68806030075405,
229,50075.0,17612.603553891062,-35.95892132042452,-9.0,-273.0,273.15209673910704,
230,50250.0,17563.68152221574,-36.1800072560127,-10.6,-273.0,273.21367811408817,
231,50425.0,17461.379986918262,-36.33925318869852,-10.4,-274.6,274.7973126707804,
232,50600.0,17445.20733986878,-36.3086995721384,-9.8,-275.2,275.3755011204604,
233,50775.0,17465.02807436224,-36.78776207295132,-10.6,-275.2,275.40592023543945,
234,50950.0,17438.00582584526,-36.564752079686464,-9.2,-275.2,275.3547836914192,
235,51125.0,17417.80229516876,-36.464655083809035,-9.2,-275.2,275.36464772273104,
236,51300.0,17374.874997164057,-36.89670654237214,-9.8,-276.2,276.37476112301,
237,51475.0,17385.7768939725,-36.90461671185792,-9.6,-276.2,276.3686886090094,
238,51650.0,17313.14962916798,-37.146169480838,-10.0,-277.2,277.3817827573596,
239,51825.0,17291.09977682386,-37.316818404256274,-9.8,-277.6,277.77464368224736,
240,52000.0,17278.650049134063,-37.12713411875112,-8.6,-278.4,278.533952296003,
241,52175.0,17383.11080216798,-37.22319315032841,-9.6,-277.0,277.1807953447494,
242,52350.0,17289.13920756124,-37.123497857252616,-8.4,-278.0,278.13243177724223,
243,52525.0,17263.697125989544,-37.464690169887994,-8.8,-278.6,278.7406980344764,
244,52700.0,17156.6668409082,-37.766876713778984,-9.8,-279.6,279.7726545065484,
245,52875.0,17185.78482941448,-37.76627485452102,-8.4,-280.2,280.3320074894198,
246,53050.0,17112.77186412554,-37.57458609914164,-7.6,-280.6,280.70476753417597,
247,53225.0,17127.984918007343,-37.75137140543764,-7.4,-280.4,280.5054225780696,
248,53400.0,17123.27831753692,-37.75790972546248,-6.8,-280.6,280.6848634150016,
